0.1 	0 	0 	0
0.3 	0 	0 	0
0.5 	0 	0 	0
0.7 	0 	0 	0
0.9 	0 	0 	0
1.1 	0 	0 	0
1.3 	0 	0 	0
1.5 	0 	0 	0
1.7 	0 	0 	0
1.9 	0 	0 	0
2.1 	0 	0 	0
2.3 	0 	0 	0
2.5 	0 	0 	0
2.7 	0 	0 	0
2.9 	0 	0 	0
3.1 	0 	0 	0
3.3 	0 	0 	0
3.5 	0 	0 	0
3.7 	0 	0 	0
3.9 	0 	0 	0
4.1 	0 	0 	0
4.3 	0 	0 	0
4.5 	0 	0 	0
4.7 	0 	0 	0
4.9 	0 	0 	0
5.1 	0 	0 	0
5.3 	0 	0 	0
5.5 	0 	0 	0
5.7 	0 	0 	0
5.9 	0 	0 	0
6.1 	0 	0 	0
6.3 	0 	0 	0
6.5 	0 	0 	0
6.7 	0 	0 	0
6.9 	0 	0 	0
7.1 	0 	0 	0
7.3 	0 	0 	0
7.5 	0 	0 	0
7.7 	0 	0 	0
7.9 	0 	0 	0
8.1 	0 	0 	0
8.3 	0 	0 	0
8.5 	0 	0 	0
8.7 	0 	0 	0
8.9 	0 	0 	0
9.1 	0 	0 	0
9.3 	0 	0 	0
9.5 	0 	0 	0
9.7 	0 	0 	0
9.9 	0 	0 	0
10.1 	0 	0 	0
10.3 	0 	0 	0
10.5 	0 	0 	0
10.7 	0 	0 	0
10.9 	0 	0 	0
11.1 	0 	0 	0
11.3 	0 	0 	0
11.5 	0 	0 	0
11.7 	0 	0 	0
11.9 	0 	0 	0
12.1 	0 	0 	0
12.3 	0 	0 	0
12.5 	0 	0 	0
12.7 	0 	0 	0
12.9 	0 	0 	0
13.1 	0 	0 	0
13.3 	0 	0 	0
13.5 	0 	0 	0
13.7 	0 	0 	0
13.9 	0 	0 	0
14.1 	0 	0 	0
14.3 	0 	0 	0
14.5 	0 	0 	0
14.7 	0 	0 	0
14.9 	0 	0 	0
15.1 	0 	0 	0
15.3 	0 	0 	0
15.5 	0 	0 	0
15.7 	0 	0 	0
15.9 	0 	0 	0
16.1 	0 	0 	0
16.3 	0 	0 	0
16.5 	0 	0 	0
16.7 	0 	0 	0
16.9 	0 	0 	0
17.1 	0 	0 	0
17.3 	0 	0 	0
17.5 	0 	0 	0
17.7 	0 	0 	0
17.9 	0 	0 	0
18.1 	0 	0 	0
18.3 	0 	0 	0
18.5 	0 	0 	0
18.7 	0 	0 	0
18.9 	0 	0 	0
19.1 	0 	0 	0
19.3 	0 	0 	0
19.5 	0 	0 	0
19.7 	0 	0 	0
19.9 	0 	0 	0
20.1 	0 	0 	0
20.3 	0 	0 	0
20.5 	0 	0 	0
20.7 	0 	0 	0
20.9 	0 	0 	0
21.1 	0 	0 	0
21.3 	0 	0 	0
21.5 	0 	0 	0
21.7 	0 	0 	0
21.9 	0 	0 	0
22.1 	0 	0 	0
22.3 	-1.10242e-14 	0 	0
22.5 	6.5737e-13 	0 	0
22.7 	7.20831e-12 	0 	0
22.9 	4.4523e-11 	0 	0
23.1 	2.35618e-10 	0 	0
23.3 	1.21266e-09 	0 	0
23.5 	6.17398e-09 	0 	0
23.7 	3.13735e-08 	0 	0
23.9 	1.59327e-07 	0 	0
24.1 	8.09208e-07 	0 	0
24.3 	4.11025e-06 	0 	0
24.5 	2.08794e-05 	0 	0
24.7 	0.000106075 	0 	0
24.9 	0.000538955 	0 	0
25.1 	0.00273865 	0 	0
25.3 	0.0139168 	0 	0
25.5 	0.070695 	0 	0
25.7 	0.359439 	0 	0
25.9 	1.68704 	0 	0
26.1 	5.04112 	0 	0
26.3 	10.2756 	0 	0
26.5 	16.6663 	0 	0
26.7 	23.6646 	0 	0
26.9 	30.9897 	0 	0
27.1 	38.5114 	0 	0
27.3 	46.1664 	0 	0
27.5 	53.9197 	0 	0
27.7 	61.7493 	0 	0
27.9 	69.64 	0 	0
28.1 	77.5805 	0 	0
28.3 	85.5621 	0 	0
28.5 	93.5783 	0 	0
28.7 	101.624 	0 	0
28.9 	109.694 	0 	0
29.1 	117.787 	0 	0
29.3 	125.897 	0 	0
29.5 	134.025 	0 	0
29.7 	142.167 	0 	0
29.9 	150.321 	0 	0
30.1 	158.487 	0 	0
30.3 	166.663 	0 	0
30.5 	174.848 	0 	0
30.7 	183.041 	0 	0
30.9 	191.242 	0 	0
31.1 	199.449 	0 	0
31.3 	207.663 	0 	0
31.5 	215.881 	0 	0
31.7 	224.105 	0 	0
31.9 	232.334 	0 	0
32.1 	240.566 	0 	0
32.3 	248.803 	0 	0
32.5 	257.042 	0 	0
32.7 	265.286 	0 	0
32.9 	273.532 	0 	0
33.1 	281.78 	0 	0
33.3 	290.032 	0 	0
33.5 	298.285 	0 	0
33.7 	306.54 	0 	0
33.9 	314.798 	0 	0
34.1 	323.057 	0 	0
34.3 	331.318 	0 	0
34.5 	339.58 	0 	0
34.7 	347.843 	0 	0
34.9 	356.108 	0 	0
35.1 	364.373 	0 	0
35.3 	372.639 	0 	0
35.5 	380.907 	0 	0
35.7 	389.174 	0 	0
35.9 	397.443 	0 	0
36.1 	405.711 	0 	0
36.3 	413.981 	0 	0
36.5 	422.25 	0 	0
36.7 	430.519 	0 	0
36.9 	438.789 	0 	0
37.1 	447.058 	0 	0
37.3 	455.328 	0 	0
37.5 	463.597 	0 	0
37.7 	471.865 	0 	0
37.9 	480.133 	0 	0
38.1 	488.401 	0 	0
38.3 	496.668 	0 	0
38.5 	504.935 	0 	0
38.7 	513.2 	0 	0
38.9 	521.465 	0 	0
39.1 	529.728 	0 	0
39.3 	537.99 	0 	0
39.5 	546.252 	0 	0
39.7 	554.511 	0 	0
39.9 	562.77 	0 	0
40.1 	571.026 	0 	0
40.3 	579.281 	0 	0
40.5 	587.534 	0 	0
40.7 	595.785 	0 	0
40.9 	604.034 	0 	0
41.1 	612.281 	0 	0
41.3 	620.525 	0 	0
41.5 	628.767 	0 	0
41.7 	637.005 	0 	0
41.9 	645.241 	0 	0
42.1 	653.473 	0 	0
42.3 	661.702 	0 	0
42.5 	669.928 	0 	0
42.7 	678.149 	0 	0
42.9 	686.366 	0 	0
43.1 	694.578 	0 	0
43.3 	702.785 	0 	0
43.5 	710.987 	0 	0
43.7 	719.183 	0 	0
43.9 	727.372 	0 	0
44.1 	735.553 	0 	0
44.3 	743.727 	0 	0
44.5 	751.892 	0 	0
44.7 	760.047 	0 	0
44.9 	768.192 	0 	0
45.1 	776.324 	0 	0
45.3 	784.442 	0 	0
45.5 	792.545 	0 	0
45.7 	800.63 	0 	0
45.9 	808.696 	0 	0
46.1 	816.739 	0 	0
46.3 	824.758 	0 	0
46.5 	832.748 	0 	0
46.7 	840.707 	0 	0
46.9 	848.63 	0 	0
47.1 	856.513 	0 	0
47.3 	864.352 	0 	0
47.5 	872.142 	0 	0
47.7 	879.876 	0 	0
47.9 	887.549 	0 	0
48.1 	895.151 	0 	0
48.3 	902.665 	0 	0
48.5 	910.055 	0 	0
48.7 	917.217 	0 	0
48.9 	923.893 	0 	0
49.1 	929.516 	0 	0
49.3 	933.248 	0 	0
49.5 	934.694 	0 	0
49.7 	935.062 	0 	0
49.9 	933.937 	0 	0
50.1 	930.862 	0 	0
50.3 	929.151 	0 	0
50.5 	928.534 	0 	0
50.7 	928.256 	0 	0
50.9 	928.099 	0 	0
51.1 	928.01 	0 	0
51.3 	927.956 	0 	0
51.5 	927.919 	0 	0
51.7 	927.893 	0 	0
51.9 	927.877 	0 	0
52.1 	927.867 	0 	0
52.3 	927.858 	0 	0
52.5 	927.834 	0 	0
52.7 	927.759 	0 	0
52.9 	927.656 	0 	0
53.1 	927.606 	0 	0
53.3 	927.593 	0 	0
53.5 	927.598 	0 	0
53.7 	927.653 	0 	0
53.9 	927.683 	0 	0
54.1 	927.677 	0 	0
54.3 	927.543 	0 	0
54.5 	927.424 	0 	0
54.7 	927.385 	0 	0
54.9 	927.387 	0 	0
55.1 	927.49 	0 	0
55.3 	927.573 	0 	0
55.5 	927.595 	0 	0
55.7 	927.564 	0 	0
55.9 	927.469 	0 	0
56.1 	927.436 	0 	0
56.3 	927.437 	0 	0
56.5 	927.499 	0 	0
56.7 	927.544 	0 	0
56.9 	927.55 	0 	0
57.1 	927.508 	0 	0
57.3 	927.463 	0 	0
57.5 	927.447 	0 	0
57.7 	927.449 	0 	0
57.9 	927.479 	0 	0
58.1 	927.491 	0 	0
58.3 	927.492 	0 	0
58.5 	927.445 	0 	0
58.7 	927.425 	0 	0
58.9 	927.418 	0 	0
59.1 	927.44 	0 	0
59.3 	927.467 	0 	0
59.5 	927.472 	0 	0
59.7 	927.461 	0 	0
59.9 	927.429 	0 	0
60.1 	927.419 	0 	0
60.3 	927.419 	0 	0
60.5 	927.435 	0 	0
60.7 	927.475 	0 	0
60.9 	927.493 	0 	0
61.1 	927.498 	0 	0
61.3 	927.495 	0 	0
61.5 	927.488 	0 	0
61.7 	927.474 	0 	0
61.9 	927.486 	0 	0
62.1 	927.495 	0 	0
62.3 	927.476 	0 	0
62.5 	927.449 	0 	0
62.7 	927.444 	0 	0
62.9 	927.446 	0 	0
63.1 	927.462 	0 	0
63.3 	927.467 	0 	0
63.5 	927.437 	0 	0
63.7 	927.41 	0 	0
63.9 	927.408 	0 	0
64.1 	927.464 	0 	0
64.3 	927.484 	0 	0
64.5 	927.504 	0 	0
64.7 	927.504 	0 	0
64.9 	927.473 	0 	0
65.1 	927.474 	0 	0
65.3 	927.51 	0 	0
65.5 	927.534 	0 	0
65.7 	927.477 	0 	0
65.9 	927.424 	0 	0
66.1 	927.425 	0 	0
66.3 	927.492 	0 	0
66.5 	927.532 	0 	0
66.7 	927.527 	0 	0
66.9 	927.413 	0 	0
67.1 	927.409 	0 	0
67.3 	927.384 	0 	0
67.5 	927.582 	0 	0
67.7 	927.453 	0 	0
67.9 	927.721 	0 	0
68.1 	927.408 	0 	0
68.3 	928.189 	0 	0
68.5 	927.497 	0 	0
68.7 	929.115 	0 	0
68.9 	926.772 	0 	0
69.1 	930.051 	0 	0
69.3 	924.974 	0 	0
69.5 	929.08 	0 	0
69.7 	926.649 	0 	0
69.9 	927.609 	0 	0
70.1 	927.472 	0 	0
70.3 	927.495 	0 	0
70.5 	927.486 	0 	0
70.7 	927.482 	0 	0
70.9 	927.484 	0 	0
71.1 	927.483 	0 	0
71.3 	927.495 	0 	0
71.5 	927.455 	0 	0
71.7 	927.487 	0 	0
71.9 	927.416 	0 	0
72.1 	927.467 	0 	0
72.3 	927.44 	0 	0
72.5 	927.446 	0 	0
72.7 	927.447 	0 	0
72.9 	927.451 	0 	0
73.1 	927.452 	0 	0
73.3 	927.451 	0 	0
73.5 	927.45 	0 	0
73.7 	927.46 	0 	0
73.9 	927.488 	0 	0
74.1 	927.495 	0 	0
74.3 	927.497 	0 	0
74.5 	927.498 	0 	0
74.7 	927.497 	0 	0
74.9 	927.489 	0 	0
75.1 	927.49 	0 	0
75.3 	927.492 	0 	0
75.5 	927.497 	0 	0
75.7 	927.5 	0 	0
75.9 	927.501 	0 	0
76.1 	927.497 	0 	0
76.3 	927.483 	0 	0
76.5 	927.471 	0 	0
76.7 	927.465 	0 	0
76.9 	927.466 	0 	0
77.1 	927.471 	0 	0
77.3 	927.474 	0 	0
77.5 	927.474 	0 	0
77.7 	927.467 	0 	0
77.9 	927.464 	0 	0
78.1 	927.461 	0 	0
78.3 	927.457 	0 	0
78.5 	927.456 	0 	0
78.7 	927.457 	0 	0
78.9 	927.461 	0 	0
79.1 	927.474 	0 	0
79.3 	927.476 	0 	0
79.5 	927.478 	0 	0
79.7 	927.476 	0 	0
79.9 	927.481 	0 	0
80.1 	927.497 	0 	0
80.3 	927.511 	0 	0
80.5 	927.513 	0 	0
80.7 	927.509 	0 	0
80.9 	927.503 	0 	0
81.1 	927.503 	0 	0
81.3 	927.509 	0 	0
81.5 	927.508 	0 	0
81.7 	927.504 	0 	0
81.9 	927.503 	0 	0
82.1 	927.497 	0 	0
82.3 	927.491 	0 	0
82.5 	927.47 	0 	0
82.7 	927.469 	0 	0
82.9 	927.469 	0 	0
83.1 	927.482 	0 	0
83.3 	927.463 	0 	0
83.5 	927.461 	0 	0
83.7 	927.393 	0 	0
83.9 	927.225 	0 	0
84.1 	926.629 	0 	0
84.3 	924.642 	0 	0
84.5 	917.965 	0 	0
84.7 	895.458 	0 	0
84.9 	818.237 	0 	0
85.1 	554.259 	0 	0
85.3 	135.236 	0 	0
85.5 	9.01449 	0 	0
85.7 	0.536005 	0 	0
85.9 	0.0316033 	0 	0
86.1 	0.00186623 	0 	0
86.3 	0.000110304 	0 	0
86.5 	6.52026e-06 	0 	0
86.7 	3.85394e-07 	0 	0
86.9 	2.27785e-08 	0 	0
87.1 	1.34626e-09 	0 	0
87.3 	7.95817e-11 	0 	0
87.5 	4.58945e-12 	0 	0
87.7 	2.30241e-13 	0 	0
87.9 	1.13531e-14 	0 	0
88.1 	0 	0 	0
88.3 	0 	0 	0
88.5 	0 	0 	0
88.7 	0 	0 	0
88.9 	0 	0 	0
89.1 	0 	0 	0
89.3 	0 	0 	0
89.5 	0 	0 	0
89.7 	0 	0 	0
89.9 	0 	0 	0
90.1 	0 	0 	0
90.3 	0 	0 	0
90.5 	0 	0 	0
90.7 	0 	0 	0
90.9 	0 	0 	0
91.1 	0 	0 	0
91.3 	0 	0 	0
91.5 	0 	0 	0
91.7 	0 	0 	0
91.9 	0 	0 	0
92.1 	0 	0 	0
92.3 	0 	0 	0
92.5 	0 	0 	0
92.7 	0 	0 	0
92.9 	0 	0 	0
93.1 	0 	0 	0
93.3 	0 	0 	0
93.5 	0 	0 	0
93.7 	0 	0 	0
93.9 	0 	0 	0
94.1 	0 	0 	0
94.3 	0 	0 	0
94.5 	0 	0 	0
94.7 	0 	0 	0
94.9 	0 	0 	0
95.1 	0 	0 	0
95.3 	0 	0 	0
95.5 	0 	0 	0
95.7 	0 	0 	0
95.9 	0 	0 	0
96.1 	0 	0 	0
96.3 	0 	0 	0
96.5 	0 	0 	0
96.7 	0 	0 	0
96.9 	0 	0 	0
97.1 	0 	0 	0
97.3 	0 	0 	0
97.5 	0 	0 	0
97.7 	0 	0 	0
97.9 	0 	0 	0
98.1 	0 	0 	0
98.3 	0 	0 	0
98.5 	0 	0 	0
98.7 	0 	0 	0
98.9 	0 	0 	0
99.1 	0 	0 	0
99.3 	0 	0 	0
99.5 	0 	0 	0
99.7 	0 	0 	0
99.9 	0 	0 	0
